Time,Absorbance
0,0.8
15,0.75
30,0.7
45,0.65
60,0.6
75,0.56
90,0.53
105,0.49
120,0.46
135,0.43
150,0.4
165,0.37
180,0.34
195,0.32
210,0.3
225,0.28
240,0.27
255,0.25
270,0.24
285,0.22
300,0.21
315,0.19